iter	Passed	Remaining
0	15	15069
1	28	14321
2	39	13031
3	48	12190
4	57	11498
5	67	11205
6	78	11076
7	87	10818
8	96	10637
9	105	10445
10	115	10375
11	125	10340
12	134	10209
13	143	10097
14	152	10001
15	161	9912
16	171	9915
17	180	9841
18	190	9813
19	198	9731
20	207	9678
21	216	9624
22	227	9644
23	236	9610
24	245	9583
25	254	9549
26	263	9504
27	273	9501
28	282	9475
29	291	9439
30	300	9391
31	309	9363
32	318	9328
33	328	9325
34	337	9307
35	346	9279
36	355	9239
37	363	9205
38	371	9162
39	380	9133
40	388	9090
41	397	9064
42	406	9046
43	415	9023
44	423	8991
45	431	8957
46	440	8934
47	448	8902
48	457	8878
49	466	8856
50	474	8836
51	483	8819
52	492	8792
53	500	8765
54	509	8748
55	517	8728
56	526	8702
57	534	8677
58	542	8656
59	551	8640
60	560	8624
61	569	8611
62	577	8592
63	586	8573
64	595	8562
65	604	8551
66	612	8535
67	621	8522
68	630	8505
69	638	8485
70	647	8468
71	656	8458
72	664	8437
73	672	8419
74	682	8411
75	690	8395
76	699	8389
77	707	8368
78	717	8362
79	726	8353
80	735	8342
81	744	8332
82	752	8318
83	761	8300
84	769	8286
85	778	8275
86	787	8263
87	796	8255
88	805	8247
89	814	8235
90	822	8219
91	831	8202
92	839	8184
93	848	8178
94	857	8166
95	866	8155
96	874	8145
97	883	8133
98	892	8120
99	901	8115
100	910	8105
101	919	8093
102	927	8078
103	936	8071
104	945	8055
105	954	8049
106	962	8036
107	972	8029
108	980	8018
109	990	8012
110	999	8004
111	1008	7992
112	1016	7982
113	1025	7972
114	1034	7962
115	1044	7962
116	1054	7961
117	1063	7952
118	1073	7948
119	1083	7944
120	1093	7943
121	1103	7940
122	1113	7941
123	1123	7933
124	1133	7937
125	1143	7934
126	1153	7930
127	1163	7923
128	1173	7923
129	1182	7913
130	1192	7908
131	1201	7900
132	1210	7891
133	1220	7885
134	1230	7882
135	1240	7878
136	1249	7874
137	1259	7868
138	1269	7865
139	1280	7863
140	1290	7864
141	1299	7852
142	1309	7850
143	1319	7846
144	1329	7839
145	1337	7826
146	1348	7823
147	1357	7817
148	1367	7808
149	1380	7820
150	1388	7804
151	1396	7790
152	1405	7778
153	1413	7764
154	1422	7752
155	1430	7739
156	1438	7726
157	1447	7711
158	1455	7699
159	1463	7685
160	1472	7673
161	1482	7666
162	1490	7655
163	1499	7645
164	1509	7636
165	1517	7622
166	1526	7612
167	1535	7602
168	1543	7591
169	1552	7580
170	1561	7570
171	1570	7557
172	1579	7548
173	1587	7535
174	1595	7523
175	1604	7512
176	1613	7501
177	1622	7490
178	1630	7478
179	1638	7465
180	1647	7454
181	1656	7444
182	1664	7432
183	1673	7422
184	1682	7411
185	1691	7402
186	1700	7392
187	1709	7383
188	1718	7373
189	1727	7364
190	1736	7353
191	1745	7344
192	1754	7334
193	1763	7325
194	1774	7326
195	1782	7313
196	1791	7301
197	1799	7289
198	1807	7276
199	1816	7267
200	1825	7255
201	1834	7245
202	1843	7236
203	1851	7224
204	1860	7214
205	1868	7203
206	1877	7191
207	1885	7180
208	1894	7171
209	1903	7160
210	1911	7149
211	1920	7136
212	1928	7126
213	1937	7114
214	1945	7104
215	1954	7092
216	1963	7083
217	1971	7072
218	1980	7061
219	1988	7051
220	1997	7040
221	2006	7030
222	2014	7020
223	2024	7012
224	2032	7001
225	2042	6993
226	2050	6982
227	2059	6972
228	2067	6961
229	2076	6952
230	2085	6942
231	2094	6933
232	2102	6920
233	2110	6909
234	2118	6897
235	2127	6888
236	2136	6877
237	2144	6866
238	2153	6857
239	2162	6847
240	2171	6838
241	2180	6828
242	2190	6822
243	2199	6815
244	2209	6807
245	2218	6798
246	2227	6791
247	2237	6784
248	2246	6776
249	2256	6769
250	2265	6761
251	2276	6756
252	2286	6751
253	2296	6744
254	2306	6737
255	2315	6729
256	2324	6721
257	2334	6712
258	2342	6703
259	2351	6692
260	2360	6683
261	2369	6673
262	2378	6663
263	2387	6654
264	2395	6644
265	2404	6634
266	2412	6624
267	2421	6614
268	2430	6604
269	2439	6594
270	2447	6584
271	2456	6575
272	2465	6564
273	2473	6553
274	2481	6542
275	2490	6532
276	2498	6521
277	2506	6510
278	2515	6500
279	2524	6490
280	2533	6481
281	2541	6471
282	2550	6460
283	2558	6450
284	2567	6440
285	2575	6430
286	2588	6430
287	2596	6420
288	2605	6409
289	2613	6398
290	2622	6388
291	2630	6378
292	2639	6368
293	2648	6360
294	2658	6354
295	2667	6345
296	2675	6333
297	2684	6323
298	2692	6313
299	2701	6304
300	2710	6294
301	2719	6284
302	2727	6275
303	2736	6265
304	2745	6255
305	2754	6246
306	2762	6235
307	2771	6227
308	2780	6217
309	2788	6207
310	2797	6198
311	2806	6189
312	2814	6178
313	2823	6167
314	2832	6158
315	2840	6148
316	2849	6139
317	2857	6128
318	2866	6118
319	2874	6108
320	2883	6099
321	2892	6090
322	2901	6082
323	2910	6072
324	2918	6062
325	2927	6052
326	2948	6069
327	2957	6058
328	2965	6048
329	2974	6038
330	2982	6028
331	2992	6020
332	3001	6011
333	3009	6001
334	3018	5991
335	3027	5982
336	3035	5972
337	3044	5962
338	3053	5952
339	3062	5945
340	3070	5934
341	3079	5924
342	3088	5915
343	3096	5905
344	3105	5895
345	3113	5885
346	3122	5876
347	3130	5865
348	3140	5857
349	3148	5846
350	3156	5836
351	3165	5827
352	3174	5817
353	3183	5809
354	3192	5800
355	3200	5790
356	3209	5780
357	3218	5771
358	3226	5761
359	3235	5751
360	3244	5742
361	3253	5733
362	3261	5723
363	3270	5713
364	3278	5704
365	3287	5694
366	3296	5685
367	3305	5676
368	3314	5667
369	3322	5657
370	3332	5649
371	3341	5640
372	3349	5630
373	3358	5622
374	3367	5612
375	3376	5603
376	3385	5593
377	3393	5584
378	3402	5574
379	3410	5564
380	3418	5554
381	3427	5544
382	3435	5535
383	3444	5525
384	3453	5516
385	3461	5506
386	3470	5497
387	3479	5488
388	3488	5479
389	3496	5469
390	3505	5459
391	3514	5450
392	3522	5441
393	3531	5432
394	3540	5422
395	3555	5422
396	3563	5411
397	3571	5401
398	3579	5392
399	3588	5383
400	3598	5375
401	3608	5367
402	3618	5359
403	3626	5350
404	3636	5342
405	3647	5336
406	3656	5327
407	3666	5320
408	3676	5311
409	3686	5305
410	3695	5295
411	3703	5286
412	3712	5276
413	3721	5267
414	3729	5257
415	3738	5248
416	3747	5239
417	3756	5229
418	3764	5220
419	3773	5211
420	3782	5201
421	3790	5191
422	3799	5182
423	3807	5172
424	3816	5163
425	3824	5153
426	3833	5144
427	3842	5135
428	3851	5126
429	3861	5118
430	3870	5109
431	3878	5099
432	3887	5090
433	3896	5081
434	3904	5070
435	3912	5061
436	3920	5051
437	3929	5041
438	3938	5033
439	3947	5024
440	3957	5015
441	3966	5006
442	3974	4997
443	3982	4987
444	3991	4977
445	3999	4967
446	4007	4958
447	4016	4948
448	4025	4939
449	4034	4930
450	4052	4933
451	4061	4924
452	4069	4914
453	4078	4904
454	4086	4894
455	4095	4885
456	4104	4877
457	4114	4868
458	4125	4862
459	4135	4855
460	4145	4846
461	4154	4837
462	4163	4829
463	4173	4820
464	4183	4813
465	4193	4804
466	4203	4797
467	4213	4789
468	4223	4781
469	4232	4773
470	4244	4766
471	4252	4757
472	4262	4749
473	4272	4741
474	4282	4733
475	4292	4725
476	4301	4716
477	4311	4708
478	4321	4700
479	4331	4692
480	4342	4685
481	4351	4676
482	4361	4668
483	4371	4660
484	4381	4652
485	4391	4644
486	4401	4636
487	4411	4628
488	4420	4619
489	4431	4612
490	4441	4604
491	4450	4595
492	4460	4587
493	4469	4577
494	4478	4568
495	4486	4558
496	4495	4549
497	4504	4541
498	4513	4531
499	4521	4521
500	4530	4512
501	4538	4502
502	4547	4493
503	4556	4483
504	4565	4475
505	4573	4465
506	4583	4456
507	4591	4446
508	4600	4437
509	4609	4428
510	4617	4419
511	4626	4409
512	4635	4400
513	4644	4391
514	4652	4381
515	4662	4372
516	4670	4363
517	4679	4354
518	4687	4344
519	4696	4335
520	4704	4325
521	4713	4315
522	4722	4306
523	4731	4297
524	4739	4288
525	4748	4278
526	4756	4269
527	4764	4259
528	4773	4249
529	4781	4240
530	4790	4231
531	4799	4221
532	4808	4212
533	4816	4203
534	4826	4194
535	4834	4185
536	4843	4176
537	4852	4166
538	4861	4157
539	4869	4148
540	4878	4138
541	4886	4129
542	4896	4120
543	4904	4111
544	4913	4102
545	4922	4093
546	4931	4083
547	4939	4074
548	4947	4064
549	4956	4055
550	4965	4045
551	4974	4037
552	4982	4027
553	4991	4018
554	4999	4008
555	5008	3999
556	5017	3990
557	5026	3981
558	5034	3972
559	5043	3963
560	5052	3953
561	5061	3944
562	5069	3935
563	5078	3926
564	5087	3916
565	5096	3907
566	5100	3894
567	5108	3885
568	5117	3876
569	5127	3868
570	5136	3858
571	5146	3850
572	5154	3841
573	5163	3832
574	5172	3823
575	5181	3814
576	5190	3804
577	5199	3796
578	5207	3786
579	5217	3777
580	5225	3768
581	5234	3759
582	5242	3749
583	5251	3740
584	5260	3731
585	5268	3722
586	5277	3712
587	5285	3703
588	5294	3694
589	5303	3685
590	5311	3675
591	5320	3666
592	5329	3658
593	5338	3648
594	5346	3639
595	5355	3630
596	5364	3621
597	5373	3612
598	5381	3602
599	5391	3594
600	5400	3585
601	5409	3576
602	5418	3567
603	5428	3559
604	5437	3550
605	5447	3541
606	5457	3533
607	5467	3524
608	5476	3516
609	5486	3507
610	5496	3499
611	5506	3490
612	5515	3482
613	5525	3473
614	5534	3464
615	5544	3456
616	5553	3447
617	5562	3438
618	5570	3428
619	5579	3419
620	5588	3410
621	5597	3401
622	5606	3392
623	5615	3383
624	5624	3374
625	5632	3365
626	5640	3355
627	5650	3346
628	5658	3337
629	5667	3328
630	5676	3319
631	5685	3310
632	5695	3302
633	5704	3293
634	5714	3284
635	5724	3276
636	5734	3268
637	5757	3266
638	5766	3257
639	5775	3248
640	5785	3239
641	5794	3231
642	5804	3222
643	5813	3213
644	5823	3205
645	5833	3196
646	5842	3187
647	5851	3178
648	5860	3169
649	5869	3160
650	5879	3151
651	5888	3142
652	5899	3134
653	5908	3125
654	5918	3117
655	5927	3108
656	5937	3099
657	5948	3091
658	5959	3083
659	5969	3075
660	5979	3066
661	5988	3057
662	5998	3049
663	6008	3040
664	6018	3031
665	6027	3023
666	6036	3013
667	6045	3004
668	6054	2995
669	6063	2986
670	6072	2977
671	6081	2968
672	6090	2959
673	6099	2950
674	6109	2941
675	6118	2932
676	6127	2923
677	6135	2914
678	6145	2905
679	6153	2895
680	6161	2886
681	6170	2877
682	6179	2868
683	6188	2859
684	6196	2849
685	6205	2840
686	6213	2830
687	6221	2821
688	6230	2812
689	6239	2803
690	6248	2794
691	6257	2785
692	6266	2776
693	6275	2767
694	6286	2758
695	6297	2750
696	6307	2741
697	6316	2733
698	6327	2724
699	6337	2716
700	6347	2707
701	6357	2698
702	6366	2689
703	6378	2681
704	6387	2672
705	6397	2664
706	6407	2655
707	6416	2646
708	6425	2637
709	6434	2628
710	6443	2619
711	6452	2609
712	6460	2600
713	6469	2591
714	6478	2582
715	6486	2573
716	6495	2563
717	6504	2554
718	6513	2545
719	6521	2536
720	6529	2526
721	6539	2517
722	6548	2509
723	6557	2499
724	6568	2491
725	6581	2483
726	6593	2476
727	6603	2467
728	6619	2460
729	6642	2456
730	6657	2450
731	6668	2441
732	6681	2433
733	6692	2425
734	6705	2417
735	6715	2408
736	6724	2399
737	6734	2390
738	6744	2382
739	6753	2372
740	6762	2363
741	6782	2358
742	6790	2348
743	6798	2339
744	6806	2329
745	6816	2320
746	6824	2311
747	6833	2302
748	6842	2293
749	6851	2283
750	6860	2274
751	6870	2265
752	6881	2257
753	6891	2248
754	6901	2239
755	6911	2230
756	6920	2221
757	6932	2213
758	6941	2204
759	6951	2195
760	6960	2186
761	6970	2177
762	6980	2168
763	6991	2159
764	7002	2151
765	7013	2142
766	7024	2133
767	7035	2125
768	7044	2116
769	7055	2107
770	7066	2098
771	7075	2089
772	7085	2080
773	7094	2071
774	7104	2062
775	7114	2053
776	7124	2044
777	7135	2036
778	7145	2027
779	7154	2018
780	7164	2008
781	7173	1999
782	7183	1990
783	7192	1981
784	7201	1972
785	7210	1963
786	7218	1953
787	7227	1944
788	7237	1935
789	7246	1926
790	7256	1917
791	7265	1908
792	7275	1899
793	7284	1890
794	7294	1881
795	7314	1874
796	7329	1866
797	7344	1859
798	7355	1850
799	7365	1841
800	7378	1833
801	7389	1824
802	7400	1815
803	7408	1806
804	7418	1796
805	7427	1787
806	7436	1778
807	7444	1769
808	7453	1759
809	7462	1750
810	7471	1741
811	7479	1731
812	7488	1722
813	7497	1713
814	7505	1703
815	7514	1694
816	7523	1685
817	7532	1675
818	7542	1666
819	7550	1657
820	7560	1648
821	7569	1639
822	7579	1630
823	7588	1620
824	7598	1611
825	7608	1602
826	7619	1593
827	7628	1584
828	7637	1575
829	7647	1566
830	7657	1557
831	7667	1548
832	7677	1539
833	7686	1529
834	7695	1520
835	7705	1511
836	7714	1502
837	7724	1493
838	7733	1484
839	7742	1474
840	7751	1465
841	7759	1456
842	7768	1446
843	7777	1437
844	7786	1428
845	7795	1418
846	7803	1409
847	7813	1400
848	7822	1391
849	7832	1382
850	7842	1373
851	7851	1363
852	7860	1354
853	7870	1345
854	7880	1336
855	7890	1327
856	7900	1318
857	7923	1311
858	7933	1302
859	7942	1292
860	7950	1283
861	7959	1274
862	7968	1264
863	7977	1255
864	7985	1246
865	7994	1237
866	8002	1227
867	8011	1218
868	8019	1208
869	8027	1199
870	8036	1190
871	8044	1180
872	8053	1171
873	8062	1162
874	8071	1153
875	8080	1143
876	8088	1134
877	8096	1125
878	8105	1115
879	8114	1106
880	8123	1097
881	8131	1087
882	8139	1078
883	8149	1069
884	8157	1060
885	8166	1050
886	8175	1041
887	8184	1032
888	8192	1022
889	8201	1013
890	8210	1004
891	8219	995
892	8228	985
893	8237	976
894	8246	967
895	8256	958
896	8267	949
897	8277	940
898	8287	931
899	8298	922
900	8309	913
901	8319	903
902	8328	894
903	8338	885
904	8348	876
905	8357	867
906	8368	858
907	8379	849
908	8389	839
909	8401	830
910	8410	821
911	8420	812
912	8429	803
913	8440	794
914	8449	784
915	8459	775
916	8470	766
917	8480	757
918	8489	748
919	8499	739
920	8509	729
921	8519	720
922	8528	711
923	8537	702
924	8546	692
925	8555	683
926	8564	674
927	8573	665
928	8582	655
929	8590	646
930	8599	637
931	8607	628
932	8616	618
933	8624	609
934	8633	600
935	8642	590
936	8651	581
937	8660	572
938	8668	563
939	8677	553
940	8685	544
941	8694	535
942	8702	526
943	8711	516
944	8719	507
945	8728	498
946	8737	488
947	8746	479
948	8755	470
949	8769	461
950	8778	452
951	8787	443
952	8797	433
953	8806	424
954	8816	415
955	8825	406
956	8835	397
957	8846	387
958	8856	378
959	8867	369
960	8878	360
961	8888	351
962	8898	341
963	8907	332
964	8916	323
965	8927	314
966	8937	305
967	8946	295
968	8957	286
969	8967	277
970	8976	268
971	8986	258
972	8997	249
973	9008	240
974	9018	231
975	9028	222
976	9038	212
977	9051	203
978	9061	194
979	9071	185
980	9081	175
981	9092	166
982	9104	157
983	9115	148
984	9125	138
985	9135	129
986	9144	120
987	9155	111
988	9166	101
989	9175	92
990	9185	83
991	9195	74
992	9204	64
993	9214	55
994	9223	46
995	9233	37
996	9241	27
997	9252	18
998	9261	9
999	9270	0
